Wavelength [nm]	Wavenumbers [1/cm]	Intensity
175.764	56894.61	240.2
176.337	56709.71	264.9
176.910	56526.01	248.6
177.483	56343.49	273.9
178.056	56162.15	254.9
178.629	55981.97	250.1
179.202	55802.94	258.4
179.775	55625.06	261.7
180.348	55448.30	271.7
180.921	55272.67	261.7
181.494	55098.14	255.5
182.067	54924.71	272.7
182.640	54752.38	268.5
183.214	54581.11	247
183.787	54410.92	250
184.360	54241.79	255.9
184.933	54073.70	277.4
185.506	53906.65	310.6
186.079	53740.63	294.9
186.652	53575.64	273.6
187.225	53411.65	287.3
187.798	53248.66	299.8
188.371	53086.66	305.8
188.944	52925.65	286.7
189.517	52765.61	274
190.090	52606.53	290.3
190.664	52448.41	302.6
191.237	52291.24	293.5
191.810	52135.01	289.8
192.383	51979.71	299.4
192.956	51825.33	299
193.529	51671.86	300.1
194.102	51519.30	314
194.675	51367.64	307.2
195.248	51216.87	286.3
195.821	51066.99	282.1
196.394	50917.97	284.3
196.967	50769.83	294.7
197.540	50622.54	280.2
198.114	50476.11	296
198.687	50330.52	268.2
199.260	50185.77	302.6
199.833	50041.85	277.5
200.406	49898.75	293.8
200.979	49756.46	286.5
201.552	49614.99	295.8
202.125	49474.32	304.6
202.698	49334.44	316.4
203.271	49195.36	289.4
203.844	49057.05	279.4
204.417	48919.52	290.6
204.990	48782.76	292.5
205.564	48646.76	287.6
206.137	48511.52	295.2
206.710	48377.03	307.5
207.283	48243.28	295.5
207.856	48110.27	269.9
208.429	47977.99	265.7
209.002	47846.44	274.2
209.575	47715.60	277.2
210.148	47585.48	285.3
210.721	47456.07	294
211.294	47327.36	263.5
211.867	47199.34	274.7
212.440	47072.02	303.3
213.014	46945.38	258.2
213.587	46819.42	290.4
214.160	46694.13	263.2
214.733	46569.52	270.2
215.306	46445.56	274.6
215.879	46322.27	255.7
216.452	46199.63	275.6
217.025	46077.63	279
217.598	45956.28	276.5
218.171	45835.57	262.4
218.744	45715.48	260.4
219.317	45596.03	265.3
219.890	45477.20	255
220.463	45358.98	252.3
221.037	45241.38	256.5
221.610	45124.39	246.6
222.183	45008.00	246.5
222.756	44892.21	245.2
223.329	44777.01	260.9
223.902	44662.41	264.1
224.475	44548.38	270
225.048	44434.94	260.1
225.621	44322.08	292.3
226.194	44209.79	258.7
226.767	44098.06	257.4
227.340	43986.90	241.1
227.913	43876.30	264.9
228.487	43766.25	255.1
229.060	43656.75	261.6
229.633	43547.80	260.9
230.206	43439.39	261.5
230.779	43331.52	265
231.352	43224.19	252.6
231.925	43117.38	238
232.498	43011.11	252.7
233.071	42905.35	248.6
233.644	42800.11	234.8
234.217	42695.39	255.1
234.790	42591.18	246.9
235.363	42487.48	244.6
235.937	42384.28	265.7
236.510	42281.58	268.9
237.083	42179.37	250
237.656	42077.66	261.9
238.229	41976.44	242.5
238.802	41875.71	239.3
239.375	41775.46	236.1
239.948	41675.68	257.9
240.521	41576.38	272.7
241.094	41477.56	266.1
241.667	41379.20	229.3
242.240	41281.31	252.9
242.813	41183.88	255.7
243.387	41086.91	272.3
243.960	40990.39	267
244.533	40894.33	270.7
245.106	40798.71	265.2
245.679	40703.55	260.2
246.252	40608.82	267.8
246.825	40514.54	258.3
247.398	40420.69	254.1
247.971	40327.27	267.4
248.544	40234.29	260.2
249.117	40141.73	264.6
249.690	40049.60	275.2
250.263	39957.89	262.5
250.837	39866.60	259
251.410	39775.73	254.7
251.983	39685.27	237.3
252.556	39595.22	251.5
253.129	39505.57	233.3
253.702	39416.34	262.5
254.275	39327.50	249
254.848	39239.07	255.4
255.421	39151.03	259.4
255.994	39063.38	245.1
256.567	38976.13	260.1
257.140	38889.27	270.4
257.713	38802.79	272.9
258.287	38716.69	250.1
258.860	38630.98	257.2
259.433	38545.65	267.4
260.006	38460.69	253.2
260.579	38376.10	255.3
261.152	38291.89	263.1
261.725	38208.05	265.5
262.298	38124.57	270.2
262.871	38041.45	258
263.444	37958.70	252.3
264.017	37876.31	273.1
264.590	37794.27	241.9
265.163	37712.59	239.4
265.737	37631.26	250.6
266.310	37550.28	254.9
266.883	37469.65	264.1
267.456	37389.36	259
268.029	37309.42	251.6
268.602	37229.82	255.6
269.175	37150.56	264.4
269.748	37071.63	256.3
270.321	36993.04	253.6
270.894	36914.78	261
271.467	36836.85	256.2
272.040	36759.25	265.1
272.613	36681.98	265.2
273.186	36605.03	263.8
273.760	36528.40	268.8
274.333	36452.10	268.7
274.906	36376.11	266.8
275.479	36300.43	261.6
276.052	36225.08	255.6
276.625	36150.03	254.7
277.198	36075.29	265.3
277.771	36000.86	255.9
278.344	35926.74	249.7
278.917	35852.93	239.1
279.490	35779.41	255.2
280.063	35706.20	239.3
280.636	35633.29	230.1
281.210	35560.67	264.5
281.783	35488.35	269.8
282.356	35416.32	246.8
282.929	35344.58	256.4
283.502	35273.14	267.2
284.075	35201.98	272.1
284.648	35131.11	265.2
285.221	35060.52	256.9
285.794	34990.22	253.7
286.367	34920.19	243.7
286.940	34850.45	250.1
287.513	34780.99	254.8
288.086	34711.80	255.9
288.660	34642.89	262.7
289.233	34574.25	259.5
289.806	34505.88	258.1
290.379	34437.78	264.1
290.952	34369.95	259.9
291.525	34302.38	256.5
292.098	34235.08	251.1
292.671	34168.05	270.5
293.244	34101.28	260
293.817	34034.76	262.6
294.390	33968.51	234.4
294.963	33902.51	265.5
295.536	33836.77	250.1
296.110	33771.29	240.6
296.683	33706.05	253.1
297.256	33641.07	262.6
297.829	33576.34	252.2
298.402	33511.86	264
298.975	33447.62	241.7
299.548	33383.63	243.5
300.121	33319.89	261.3
300.694	33256.38	286.3
301.267	33193.12	268.1
301.840	33130.10	242.5
302.413	33067.32	244.2
302.986	33004.78	254.3
303.560	32942.47	252.7
304.133	32880.39	252.8
304.706	32818.55	256.4
305.279	32756.95	249.1
305.852	32695.57	251.7
306.425	32634.42	241.3
306.998	32573.50	258.5
307.571	32512.81	257.2
308.144	32452.35	255.5
308.717	32392.10	259.1
309.290	32332.09	268.3
309.863	32272.29	241.6
310.436	32212.71	288.9
311.010	32153.36	258.6
311.583	32094.22	264.6
312.156	32035.30	253.2
312.729	31976.59	268.7
313.302	31918.10	257.1
313.875	31859.83	265.8
314.448	31801.76	256.1
315.021	31743.91	274.2
315.594	31686.27	256.1
316.167	31628.83	271.5
316.740	31571.61	271.9
317.313	31514.59	257.9
317.886	31457.78	254
318.460	31401.17	257.7
319.033	31344.76	258.6
319.606	31288.56	262.4
320.179	31232.56	272.1
320.752	31176.75	271.2
321.325	31121.15	270.6
321.898	31065.75	231
322.471	31010.54	244.1
323.044	30955.52	278
323.617	30900.71	272.4
324.190	30846.08	261.9
324.763	30791.65	266.3
325.336	30737.41	250.8
325.909	30683.37	264.8
326.483	30629.51	263.9
327.056	30575.84	271.4
327.629	30522.35	259
328.202	30469.06	276.4
328.775	30415.95	269.2
329.348	30363.02	255.2
329.921	30310.28	249.6
330.494	30257.73	243.7
331.067	30205.35	255.9
331.640	30153.16	263.5
332.213	30101.14	259.8
332.786	30049.30	262.4
333.359	29997.65	265.1
333.933	29946.17	269.3
334.506	29894.86	267.2
335.079	29843.73	261.1
335.652	29792.78	258.2
336.225	29742.00	252.5
336.798	29691.39	255
337.371	29640.96	255.1
337.944	29590.69	263.8
338.517	29540.60	285.6
339.090	29490.67	281.4
339.663	29440.92	264.2
340.236	29391.33	259.9
340.809	29341.91	256.2
341.383	29292.65	245.2
341.956	29243.56	236.4
342.529	29194.63	257.4
343.102	29145.87	252.8
343.675	29097.27	248.1
344.248	29048.83	251.8
344.821	29000.55	267.7
345.394	28952.44	258.1
345.967	28904.48	274.3
346.540	28856.68	274
347.113	28809.04	273.2
347.686	28761.55	257.4
348.259	28714.22	249.2
348.833	28667.05	263.6
349.406	28620.03	270.4
349.979	28573.17	267.7
350.552	28526.46	262.1
351.125	28479.90	261.2
351.698	28433.49	268.8
352.271	28387.24	259.1
352.844	28341.13	253.6
353.417	28295.18	281
353.990	28249.37	288.2
354.563	28203.71	287.3
355.136	28158.20	274.1
355.709	28112.83	273.6
356.283	28067.61	296.9
356.856	28022.54	290.6
357.429	27977.61	277.4
358.002	27932.82	282.4
358.575	27888.18	279
359.148	27843.68	295.9
359.721	27799.32	290.3
360.294	27755.11	273.5
360.867	27711.03	300.9
361.440	27667.09	304
362.013	27623.30	272.2
362.586	27579.64	274.3
363.159	27536.11	280
363.733	27492.73	290.8
364.306	27449.48	296.6
364.879	27406.37	322.3
365.452	27363.39	331
366.025	27320.55	331.3
366.598	27277.84	322.1
367.171	27235.27	321.7
367.744	27192.83	329.5
368.317	27150.52	331.7
368.890	27108.34	341.5
369.463	27066.29	354
370.036	27024.37	356.6
370.609	26982.58	372.8
371.183	26940.93	391.8
371.756	26899.39	394.6
372.329	26857.99	428.5
372.902	26816.72	424.1
373.475	26775.57	470.7
374.048	26734.55	505.1
374.621	26693.65	533.5
375.194	26652.88	572.1
375.767	26612.23	614.1
376.340	26571.70	673.7
376.913	26531.30	723.1
377.486	26491.02	811.9
378.059	26450.87	917.8
378.632	26410.83	999.6
379.206	26370.92	1140
379.779	26331.13	1307
380.352	26291.45	1488
380.925	26251.90	1694
381.498	26212.47	1950
382.071	26173.15	2255
382.644	26133.95	2627
383.217	26094.87	3076
383.790	26055.90	3627
384.363	26017.06	4268
384.936	25978.32	5028
385.509	25939.70	5952
386.082	25901.20	7058
386.656	25862.81	8373
387.229	25824.54	9947
387.802	25786.37	1.178E4
388.375	25748.32	1.384E4
388.948	25710.39	1.614E4
389.521	25672.56	1.87E4
390.094	25634.85	2.148E4
390.667	25597.24	2.439E4
391.240	25559.75	2.728E4
391.813	25522.36	3.008E4
392.386	25485.09	3.265E4
392.959	25447.92	3.473E4
393.532	25410.86	3.606E4
394.106	25373.91	3.678E4
394.679	25337.07	3.66E4
395.252	25300.33	3.574E4
395.825	25263.70	3.381E4
396.398	25227.18	3.16E4
396.971	25190.76	2.906E4
397.544	25154.45	2.651E4
398.117	25118.24	2.406E4
398.690	25082.13	2.197E4
399.263	25046.13	2.01E4
399.836	25010.24	1.838E4
400.409	24974.44	1.691E4
400.982	24938.75	1.556E4
401.556	24903.16	1.433E4
402.129	24867.67	1.315E4
402.702	24832.28	1.206E4
403.275	24796.99	1.106E4
403.848	24761.80	1.007E4
404.421	24726.71	9103
404.994	24691.72	8242
405.567	24656.83	7472
406.140	24622.04	6741
406.713	24587.35	6050
407.286	24552.75	5429
407.859	24518.25	4895
408.432	24483.85	4427
409.006	24449.55	4013
409.579	24415.34	3658
410.152	24381.22	3355
410.725	24347.21	3092
411.298	24313.28	2850
411.871	24279.45	2645
412.444	24245.72	2470
413.017	24212.08	2298
413.590	24178.53	2135
414.163	24145.07	2014
414.736	24111.71	1881
415.309	24078.44	1743
415.882	24045.26	1630
416.456	24012.17	1516
417.029	23979.17	1411
417.602	23946.26	1306
418.175	23913.45	1227
418.748	23880.72	1120
419.321	23848.08	1021
419.894	23815.54	961.7
420.467	23783.08	879.2
421.040	23750.71	822.4
421.613	23718.42	771.7
422.186	23686.23	734
422.759	23654.12	698.9
423.332	23622.10	649.6
423.906	23590.16	609.4
424.479	23558.31	588.9
425.052	23526.55	553.9
425.625	23494.88	525.7
426.198	23463.28	518.5
426.771	23431.78	495.7
427.344	23400.35	469.3
427.917	23369.02	457
428.490	23337.76	438.6
429.063	23306.59	429.5
429.636	23275.50	428.9
430.209	23244.50	413.6
430.782	23213.58	413.6
431.355	23182.74	414.1
431.929	23151.98	400
432.502	23121.30	388.5
433.075	23090.70	360.5
433.648	23060.19	355.3
434.221	23029.75	359.9
434.794	22999.40	362.4
435.367	22969.13	343.6
435.940	22938.93	355.9
436.513	22908.82	323.9
437.086	22878.78	301.9
437.659	22848.82	327.1
438.232	22818.94	341.3
438.805	22789.14	330.9
439.379	22759.42	313.7
439.952	22729.77	315.6
440.525	22700.20	326.3
441.098	22670.71	312.4
441.671	22641.29	295.6
442.244	22611.96	298.9
442.817	22582.69	308.4
443.390	22553.50	298
443.963	22524.39	291.1
444.536	22495.35	294.3
445.109	22466.39	314
445.682	22437.50	322.2
446.255	22408.69	300
446.829	22379.95	288.1
447.402	22351.28	290
447.975	22322.69	291.7
448.548	22294.17	298
449.121	22265.72	295.5
449.694	22237.35	295
450.267	22209.04	296.4
450.840	22180.81	281.5
451.413	22152.66	282.9
451.986	22124.57	282.9
452.559	22096.55	269.8
453.132	22068.61	281.7
453.705	22040.73	282.9
454.279	22012.93	286.3
454.852	21985.19	282.4
455.425	21957.53	277
455.998	21929.93	288.1
456.571	21902.41	293.6
457.144	21874.95	289.3
457.717	21847.56	276.4
458.290	21820.24	301.8
458.863	21792.99	285.6
459.436	21765.81	295.6
460.009	21738.69	261.9
460.582	21711.64	276
461.155	21684.66	284.3
461.729	21657.75	283.7
462.302	21630.90	278.2
462.875	21604.12	284.1
463.448	21577.41	287
464.021	21550.76	284
464.594	21524.17	278.9
465.167	21497.66	276.2
465.740	21471.20	261.7
466.313	21444.82	267
466.886	21418.50	278.4
467.459	21392.24	268.8
468.032	21366.04	270.5
468.605	21339.91	272.3
469.179	21313.85	269.5
469.752	21287.85	260.8
470.325	21261.91	270.4
470.898	21236.03	272.1
471.471	21210.22	268.6
472.044	21184.47	270.3
472.617	21158.78	280.9
473.190	21133.16	293.2
473.763	21107.59	291.9
474.336	21082.09	269.2
474.909	21056.65	248.5
475.482	21031.28	273.6
476.055	21005.96	289.2
476.628	20980.70	276.2
477.202	20955.51	280.9
477.775	20930.37	276.1
478.348	20905.29	264.9
478.921	20880.28	267.3
479.494	20855.32	267.4
480.067	20830.43	269.9
480.640	20805.59	277.2
481.213	20780.81	253.9
481.786	20756.10	276.2
482.359	20731.44	289.7
482.932	20706.83	261.1
483.505	20682.29	259.5
484.078	20657.81	275.3
484.652	20633.38	279.2
485.225	20609.01	285
485.798	20584.70	259.4
486.371	20560.45	279
486.944	20536.25	264.7
487.517	20512.11	250.6
488.090	20488.02	254.2
488.663	20464.00	261.1
489.236	20440.03	295.4
489.809	20416.11	266.7
490.382	20392.25	265.6
490.955	20368.45	265.6
491.528	20344.70	269.3
492.102	20321.01	269.2
492.675	20297.37	276.4
493.248	20273.79	272.1
493.821	20250.26	274.5
494.394	20226.79	277.6
494.967	20203.37	279
495.540	20180.01	280.9
496.113	20156.69	276.4
496.686	20133.44	266.2
497.259	20110.23	269.3
497.832	20087.09	280.6
498.405	20063.99	270.6
498.978	20040.95	264.4
499.552	20017.95	266.5
500.125	19995.02	266.7
500.698	19972.13	269.1
501.271	19949.30	267
501.844	19926.52	271.4
502.417	19903.79	273.8
502.990	19881.11	265.3
503.563	19858.49	265.5
504.136	19835.91	271.7
504.709	19813.39	273.5
505.282	19790.92	274.1
505.855	19768.50	271.1
506.428	19746.13	268.7
507.002	19723.81	260.5
507.575	19701.54	267
508.148	19679.32	263.2
508.721	19657.15	254.4
509.294	19635.03	269.9
509.867	19612.96	266.4
510.440	19590.94	261.1
511.013	19568.97	282.1
511.586	19547.05	266.3
512.159	19525.18	262.3
512.732	19503.36	280.4
513.305	19481.58	268.4
513.878	19459.86	266
514.452	19438.18	263.5
515.025	19416.55	266.3
515.598	19394.97	250.3
516.171	19373.43	267.2
516.744	19351.95	251.6
517.317	19330.51	256.1
517.890	19309.12	256.5
518.463	19287.78	234.4
519.036	19266.48	274.4
519.609	19245.23	260.6
520.182	19224.03	259
520.755	19202.88	267.6
521.328	19181.77	276.1
521.902	19160.70	273.7
522.475	19139.69	275.3
523.048	19118.72	273.2
523.621	19097.79	263.1
524.194	19076.91	261.9
524.767	19056.08	250.2
525.340	19035.29	257.1
525.913	19014.55	262.3
526.486	18993.85	279
527.059	18973.20	268.5
527.632	18952.59	264
528.205	18932.03	275.3
528.778	18911.51	262.1
529.351	18891.04	275.2
529.925	18870.61	295.1
530.498	18850.22	302.1
531.071	18829.88	293.4
531.644	18809.59	268.1
532.217	18789.33	266.2
532.790	18769.12	276.4
533.363	18748.96	287.7
533.936	18728.83	286
534.509	18708.75	274.6
535.082	18688.72	283.3
535.655	18668.72	277
536.228	18648.77	280.8
536.801	18628.86	294.8
537.375	18608.99	295.7
537.948	18589.17	279.2
538.521	18569.39	266.9
539.094	18549.65	274.7
539.667	18529.95	280.7
540.240	18510.29	280.9
540.813	18490.68	284
541.386	18471.11	301
541.959	18451.57	275.8
542.532	18432.08	291.1
543.105	18412.63	287.3
543.678	18393.23	292.8
544.251	18373.86	283.2
544.825	18354.53	290.5
545.398	18335.25	304.8
545.971	18316.00	280.4
546.544	18296.80	257.1
547.117	18277.63	274.2
547.690	18258.51	304.5
548.263	18239.42	301.1
548.836	18220.38	293.7
549.409	18201.37	284.9
549.982	18182.41	270.8
550.555	18163.48	283.4
551.128	18144.59	268.3
551.701	18125.74	278.9
552.275	18106.94	265.8
552.848	18088.17	274.1
553.421	18069.44	285.1
553.994	18050.74	275.8
554.567	18032.09	278.1
555.140	18013.48	282.9
555.713	17994.90	278.1
556.286	17976.36	270.3
556.859	17957.86	258.5
557.432	17939.40	297.7
558.005	17920.98	279.1
558.578	17902.59	277.9
559.151	17884.24	273.9
559.725	17865.93	261.6
560.298	17847.66	263.5
560.871	17829.42	265.5
561.444	17811.22	267.2
562.017	17793.06	274.4
562.590	17774.94	276.6
563.163	17756.85	258.5
563.736	17738.80	278.7
564.309	17720.78	280.2
564.882	17702.81	267.9
565.455	17684.86	280.6
566.028	17666.96	275.6
566.601	17649.09	269.6
567.175	17631.26	266.9
567.748	17613.46	267.4
568.321	17595.70	264.1
568.894	17577.97	269.8
569.467	17560.29	266.7
570.040	17542.63	273.6
570.613	17525.01	278.2
571.186	17507.43	279
571.759	17489.88	274.9
572.332	17472.37	271.2
572.905	17454.89	283.8
573.478	17437.45	273.1
574.051	17420.04	271.4
574.625	17402.67	277
575.198	17385.33	268.3
575.771	17368.03	274
576.344	17350.76	269.8
576.917	17333.52	277.9
577.490	17316.32	296.1
578.063	17299.15	297.7
578.636	17282.02	285.7
579.209	17264.92	273.8
579.782	17247.86	287.8
580.355	17230.82	264
580.928	17213.83	271.5
581.501	17196.86	270
582.074	17179.93	272.1
582.648	17163.03	283.6
583.221	17146.17	274.3
583.794	17129.34	269
584.367	17112.54	268
584.940	17095.77	280.8
585.513	17079.04	293.9
586.086	17062.34	268
586.659	17045.67	235.6
587.232	17029.04	278.2
587.805	17012.44	281.7
588.378	16995.87	278
588.951	16979.33	285
589.524	16962.82	255.5
590.098	16946.35	274.4
590.671	16929.91	278.8
591.244	16913.50	279
591.817	16897.12	249.5
592.390	16880.78	305.1
592.963	16864.46	283.6
593.536	16848.18	264.3
594.109	16831.93	284.2
594.682	16815.71	270.4
595.255	16799.52	311.5
595.828	16783.36	239.5
596.401	16767.23	278.3
596.974	16751.14	270.9
597.548	16735.07	274.8
598.121	16719.04	271.2
598.694	16703.03	262.2
599.267	16687.06	261
599.840	16671.12	263.2
600.413	16655.20	283.6
600.986	16639.32	281.2
601.559	16623.47	265.6
602.132	16607.65	269.6
602.705	16591.86	288.5
603.278	16576.10	260.6
603.851	16560.37	247.2
604.424	16544.66	284
604.998	16528.99	258.2
605.571	16513.35	277.9
606.144	16497.74	262.6
606.717	16482.16	259.5
607.290	16466.60	276
607.863	16451.08	270.9
608.436	16435.58	263.2
609.009	16420.12	250.1
609.582	16404.68	246.4
610.155	16389.27	256.5
610.728	16373.89	264.8
611.301	16358.54	241.7
611.874	16343.22	263
612.448	16327.93	264.8
613.021	16312.67	293
613.594	16297.43	275
614.167	16282.22	258.3
614.740	16267.04	260
615.313	16251.89	272.5
615.886	16236.77	270.8
616.459	16221.68	264.4
617.032	16206.61	268.5
617.605	16191.57	285.5
618.178	16176.56	272.7
618.751	16161.58	271.5
619.324	16146.63	281.6
619.898	16131.70	286.8
620.471	16116.80	276.2
621.044	16101.93	272
621.617	16087.08	281
622.190	16072.27	271.2
622.763	16057.48	261.4
623.336	16042.71	257.5
623.909	16027.98	236.5
624.482	16013.27	246.6
625.055	15998.59	276.8
625.628	15983.93	279.9
626.201	15969.30	273.6
626.774	15954.70	292.8
627.348	15940.13	283.5
627.921	15925.58	288
628.494	15911.06	279.7
629.067	15896.56	274
629.640	15882.10	282.4
630.213	15867.65	295.1
630.786	15853.24	288.8
631.359	15838.85	283.4
631.932	15824.48	282.4
632.505	15810.15	272
633.078	15795.84	267.9
633.651	15781.55	272.9
634.224	15767.29	279.4
634.797	15753.06	281.3
635.371	15738.85	287.9
635.944	15724.66	289.3
636.517	15710.51	277.4
637.090	15696.37	274.4
637.663	15682.27	283.9
638.236	15668.19	299.5
638.809	15654.13	304.3
639.382	15640.10	292.4
639.955	15626.09	293.4
640.528	15612.11	300.6
641.101	15598.16	291.6
641.674	15584.23	279.3
642.247	15570.32	273.5
642.821	15556.44	273.3
643.394	15542.58	278.2
643.967	15528.75	292.8
644.540	15514.95	285.6
645.113	15501.16	274.3
645.686	15487.41	284.5
646.259	15473.67	278.9
646.832	15459.96	278.7
647.405	15446.28	279.7
647.978	15432.62	271.6
648.551	15418.98	277.3
649.124	15405.37	279.3
649.697	15391.78	275.8
650.271	15378.21	277.3
650.844	15364.67	277.2
651.417	15351.16	265
651.990	15337.66	262.5
652.563	15324.19	277.3
653.136	15310.75	280.1
653.709	15297.33	287.7
654.282	15283.93	285.6
654.855	15270.55	268.4
655.428	15257.20	275.6
656.001	15243.87	302.1
656.574	15230.57	291.9
657.147	15217.28	266.2
657.721	15204.03	273.6
658.294	15190.79	270.8
658.867	15177.58	265.4
659.440	15164.39	268.2
660.013	15151.22	278.1
660.586	15138.08	291.1
661.159	15124.96	270.7
661.732	15111.86	264.7
662.305	15098.78	262.8
662.878	15085.73	275.2
663.451	15072.70	278
664.024	15059.69	264.9
664.597	15046.70	274.1
665.171	15033.74	285.9
665.744	15020.80	278.5
666.317	15007.88	265.2
666.890	14994.98	262.7
667.463	14982.11	273.8
668.036	14969.26	270.8
668.609	14956.42	272.7
669.182	14943.62	262.2
669.755	14930.83	261.8
670.328	14918.07	273.9
670.901	14905.32	278.7
671.474	14892.60	279.4
672.047	14879.90	278.2
672.621	14867.22	283.5
673.194	14854.57	278.4
673.767	14841.93	268.9
674.340	14829.32	281.3
674.913	14816.73	289.1
675.486	14804.16	269.2
676.059	14791.61	268.3
676.632	14779.08	268.2
677.205	14766.57	268
677.778	14754.09	267
678.351	14741.62	277.7
678.924	14729.18	281.8
679.497	14716.76	270.9
680.071	14704.36	263.3
680.644	14691.98	270.5
681.217	14679.62	279.7
681.790	14667.28	277.1
682.363	14654.96	271.8
682.936	14642.66	261.5
683.509	14630.39	264.2
684.082	14618.13	259.8
684.655	14605.89	281.1
685.228	14593.68	268.7
685.801	14581.48	264.2
686.374	14569.31	259.8
686.947	14557.16	268.3
687.520	14545.02	270.8
688.094	14532.91	262
688.667	14520.81	271.2
689.240	14508.74	256.4
689.813	14496.69	265.3
690.386	14484.65	270
690.959	14472.64	267.8
691.532	14460.65	269.5
692.105	14448.67	261.7
692.678	14436.72	271.3
693.251	14424.78	285.5
693.824	14412.87	267.3
694.397	14400.98	267.5
694.970	14389.10	262.4
695.544	14377.24	262.8
696.117	14365.41	256.3
696.690	14353.59	249
697.263	14341.80	264.7
697.836	14330.02	274.5
698.409	14318.26	264
698.982	14306.52	265
699.555	14294.80	280.5
700.128	14283.10	262.3
700.701	14271.42	254.7
701.274	14259.76	260.3
701.847	14248.11	274.4
702.420	14236.49	282.6
702.994	14224.88	273.6
703.567	14213.30	267.8
704.140	14201.73	281.9
704.713	14190.18	290.3
705.286	14178.65	282.8
705.859	14167.14	282.9
706.432	14155.64	270.5
707.005	14144.17	263.8
707.578	14132.71	279
708.151	14121.28	277.4
708.724	14109.86	269.5
709.297	14098.46	271.3
709.870	14087.08	274.9
710.444	14075.71	274.6
711.017	14064.37	272.6
711.590	14053.04	278.5
712.163	14041.73	269.9
712.736	14030.44	271.2
713.309	14019.17	263.3
713.882	14007.92	249.2
714.455	13996.68	261.3
715.028	13985.46	267.6
715.601	13974.26	253.5
716.174	13963.08	269.1
716.747	13951.92	270.9
717.320	13940.77	268.8
717.894	13929.64	268.6
718.467	13918.53	247.4
719.040	13907.44	259.4
719.613	13896.36	283.3
720.186	13885.31	278.8
720.759	13874.27	287.8
721.332	13863.24	265
721.905	13852.24	266.6
722.478	13841.25	274.1
723.051	13830.28	269.1
723.624	13819.33	259.6
724.197	13808.39	262
724.770	13797.47	258.1
725.344	13786.57	245.9
725.917	13775.69	247.9
726.490	13764.82	260.4
727.063	13753.97	268.3
727.636	13743.14	256.2
728.209	13732.32	257.2
728.782	13721.53	270.2
729.355	13710.74	271.4
729.928	13699.98	261.4
730.501	13689.23	263.3
731.074	13678.50	254.2
731.647	13667.79	267.9
732.220	13657.09	252
732.793	13646.41	259.1
733.367	13635.75	256.6
733.940	13625.10	266.1
734.513	13614.47	277.4
735.086	13603.85	279.1
735.659	13593.26	264.1
736.232	13582.68	267.7
736.805	13572.11	267
737.378	13561.56	263.2
737.951	13551.03	260
738.524	13540.52	280.9
739.097	13530.02	283
739.670	13519.53	270.1
740.243	13509.07	246.2
740.817	13498.62	251.7
741.390	13488.18	259.3
741.963	13477.77	248.6
742.536	13467.36	256.7
743.109	13456.98	287.4
743.682	13446.61	269.9
744.255	13436.25	291.5
744.828	13425.92	277.7
745.401	13415.59	267.6
745.974	13405.29	273.2
746.547	13395.00	270
747.120	13384.72	268
747.693	13374.46	293.7
748.267	13364.22	259.2
748.840	13353.99	246.8
749.413	13343.78	272.3
749.986	13333.59	282.3
750.559	13323.41	273.4
751.132	13313.24	279.2
751.705	13303.09	278.3
752.278	13292.96	280.9
752.851	13282.84	253.6
753.424	13272.73	252.1
753.997	13262.65	273.8
754.570	13252.57	274
755.143	13242.52	276.4
755.717	13232.47	264.9
756.290	13222.45	282.2
756.863	13212.44	245.2
757.436	13202.44	251.8
758.009	13192.46	252.2
758.582	13182.49	270.4
759.155	13172.54	277.6
759.728	13162.60	281
760.301	13152.68	261.5
760.874	13142.78	273.6
761.447	13132.89	274.4
762.020	13123.01	271
762.593	13113.15	240.7
763.167	13103.30	248.8
763.740	13093.47	263.5
764.313	13083.65	266.1
764.886	13073.85	248.4
765.459	13064.06	259.4
766.032	13054.29	270.7
766.605	13044.53	269.2
767.178	13034.78	270.9
767.751	13025.05	263.4
768.324	13015.34	264
768.897	13005.64	265.3
769.470	12995.95	263.4
770.043	12986.28	255.9
770.617	12976.62	258.9
771.190	12966.98	267.7
771.763	12957.35	257.5
772.336	12947.74	251.7
772.909	12938.14	249.1
773.482	12928.55	248.7
774.055	12918.98	259.6
774.628	12909.42	260.3
775.201	12899.88	247.9
775.774	12890.35	255.7
776.347	12880.83	269.8
776.920	12871.33	268.6
777.493	12861.85	270.6
778.067	12852.37	268.6
778.640	12842.91	267.2
779.213	12833.47	271.3
779.786	12824.04	262.7
780.359	12814.62	255.6
780.932	12805.21	264.2
781.505	12795.82	261.4
782.078	12786.45	272.8
782.651	12777.09	264.8
783.224	12767.74	264.5
783.797	12758.40	298
784.370	12749.08	290.3
784.943	12739.77	265.7
785.516	12730.48	249.8
786.090	12721.20	264.4
786.663	12711.93	268.2
787.236	12702.68	264.2
787.809	12693.44	282.3
788.382	12684.21	271.8
788.955	12674.99	272.5
789.528	12665.79	257
790.101	12656.61	258.2
790.674	12647.43	268.1
791.247	12638.27	244.7
791.820	12629.13	294.5
792.393	12619.99	272.5
792.966	12610.87	266.6
793.540	12601.77	260.8
794.113	12592.67	269.8
794.686	12583.59	266.9
795.259	12574.52	251.9
795.832	12565.47	275.3
796.405	12556.43	273.4
796.978	12547.40	275.2
797.551	12538.38	266.5
798.124	12529.38	266
798.697	12520.39	277.5
799.270	12511.41	268.2
799.843	12502.45	255.4
800.416	12493.50	279.2
800.990	12484.56	269.6
801.563	12475.63	274.1
802.136	12466.72	282.1
802.709	12457.82	282.2
803.282	12448.93	283.8
803.855	12440.06	291.4
804.428	12431.19	275.7
805.001	12422.34	285
805.574	12413.51	293
806.147	12404.68	277.1
806.720	12395.87	272.9
807.293	12387.07	293.2
807.866	12378.28	285.5
808.440	12369.51	285
809.013	12360.75	283.3
809.586	12352.00	279.9
810.159	12343.26	278.2
810.732	12334.53	272.4
811.305	12325.82	281.3
811.878	12317.12	288
812.451	12308.43	290
813.024	12299.76	283.7
813.597	12291.09	276.5
814.170	12282.44	284.7
814.743	12273.80	280.8
815.316	12265.18	282.5
815.890	12256.56	293.5
816.463	12247.96	292.9
817.036	12239.37	290.2
817.609	12230.79	289.5
818.182	12222.22	283.9
818.755	12213.67	270.6
819.328	12205.12	277.4
819.901	12196.59	296.7
820.474	12188.07	289.6
821.047	12179.57	287.5
821.620	12171.07	294.1
822.193	12162.59	284.5
822.766	12154.12	289.6
823.340	12145.66	297.3
823.913	12137.21	292.4
824.486	12128.77	277.6
825.059	12120.35	292.1
825.632	12111.94	306.7
826.205	12103.54	266.3
826.778	12095.15	296.5
827.351	12086.77	286.3
827.924	12078.40	293.3
828.497	12070.05	293.7
829.070	12061.70	267.2
829.643	12053.37	284.7
830.216	12045.05	286.2
830.790	12036.74	283.1
831.363	12028.45	277.8
831.936	12020.16	257.5
832.509	12011.89	290.8
833.082	12003.62	285.3
833.655	11995.37	281.1
834.228	11987.13	275.7
834.801	11978.90	270.3
835.374	11970.68	273
835.947	11962.48	261.8
836.520	11954.28	269.1
837.093	11946.10	274.9
837.666	11937.93	288.9
838.239	11929.76	290.6
838.813	11921.61	284
839.386	11913.48	268.8
839.959	11905.35	271.3
840.532	11897.23	276.6
841.105	11889.12	266.3
841.678	11881.03	257.3
842.251	11872.94	265.9
842.824	11864.87	268.6
843.397	11856.81	258.8
843.970	11848.76	274.2
844.543	11840.72	280.2
845.116	11832.69	279.7
845.689	11824.67	262.5
846.263	11816.66	252.2
846.836	11808.67	262.6
847.409	11800.68	274.9
847.982	11792.71	263.8
848.555	11784.74	260.5
849.128	11776.79	277.6
849.701	11768.85	282.1
850.274	11760.91	253.7
850.847	11752.99	262.9
851.420	11745.08	286.7
851.993	11737.18	278.8
852.566	11729.29	285.2
853.139	11721.41	262
853.713	11713.54	272.4
854.286	11705.69	279.5
854.859	11697.84	249.9
855.432	11690.00	280.5
856.005	11682.18	290.4
856.578	11674.36	287.6
857.151	11666.56	270.4
857.724	11658.76	274.2
858.297	11650.98	275.1
858.870	11643.20	295.1
859.443	11635.44	276
860.016	11627.69	278.9
860.589	11619.94	272.9
861.163	11612.21	279.3
861.736	11604.49	279.6
862.309	11596.78	288.9
862.882	11589.07	286.3
863.455	11581.38	284.7
864.028	11573.70	281.4
864.601	11566.03	276.4
865.174	11558.37	283.8
865.747	11550.72	289.9
866.320	11543.08	290.9
866.893	11535.45	291.2
867.466	11527.82	282.5
868.039	11520.21	265.9
868.613	11512.61	268.8
869.186	11505.02	291.1
869.759	11497.44	274.2
870.332	11489.87	278.2
870.905	11482.31	276.9
871.478	11474.76	270.5
872.051	11467.22	298.1
872.624	11459.69	274.2
873.197	11452.17	268.9
873.770	11444.66	279.5
874.343	11437.16	268.1
874.916	11429.66	279.2
875.489	11422.18	265.1
876.063	11414.71	268.8
876.636	11407.25	289.8
877.209	11399.80	263.6
877.782	11392.35	278.2
878.355	11384.92	285.5
878.928	11377.50	291.1
879.501	11370.08	278.8
880.074	11362.68	281.4
880.647	11355.29	280.8
881.220	11347.90	283.4
881.793	11340.53	277.7
882.366	11333.16	285.2
882.939	11325.81	273.4
883.513	11318.46	288.7
884.086	11311.12	290.1
884.659	11303.79	275.3
885.232	11296.48	275.8
885.805	11289.17	278.6
886.378	11281.87	271.6
886.951	11274.58	280.9
887.524	11267.30	275.5
888.097	11260.03	267.9
888.670	11252.77	271.9
889.243	11245.52	272.8
889.816	11238.27	263.3
890.389	11231.04	285.7
890.962	11223.82	278.5
891.536	11216.60	282.7
892.109	11209.40	268.9
892.682	11202.20	273.6
893.255	11195.01	284.9
893.828	11187.84	279.3
894.401	11180.67	267.5
894.974	11173.51	290.1
895.547	11166.36	271.1
896.120	11159.22	273.2
896.693	11152.09	285.3
897.266	11144.96	284.1
897.839	11137.85	268.7
898.412	11130.74	288.6
898.986	11123.65	270.8
899.559	11116.56	283.8
900.132	11109.49	279
900.705	11102.42	261.1
901.278	11095.36	256.3
901.851	11088.31	270.6
902.424	11081.27	295.9
902.997	11074.23	285.3
903.570	11067.21	270.9
904.143	11060.19	276.9
904.716	11053.19	279.7
905.289	11046.19	275.6
905.862	11039.20	265.5
906.436	11032.22	268.5
907.009	11025.25	266.4
907.582	11018.29	256
908.155	11011.34	260
908.728	11004.39	257.4
909.301	10997.46	280.9
909.874	10990.53	295.1
910.447	10983.61	277
911.020	10976.71	280.8
911.593	10969.81	297.7
912.166	10962.91	260.4
912.739	10956.03	287
913.312	10949.16	280
913.886	10942.29	277.1
914.459	10935.43	267.7
915.032	10928.58	290.5
915.605	10921.74	268.8
916.178	10914.91	264.5
916.751	10908.09	266.7
917.324	10901.27	278.9
917.897	10894.47	287.4
918.470	10887.67	262.1
919.043	10880.88	279.6
919.616	10874.10	279.9
920.189	10867.33	284.3
920.762	10860.56	293.8
921.336	10853.81	296.5
921.909	10847.06	289.2
922.482	10840.32	281
923.055	10833.59	289.1
923.628	10826.87	272.4
924.201	10820.16	287.7
924.774	10813.45	300.8
925.347	10806.76	288.4
925.920	10800.07	251.1
926.493	10793.39	267.1
927.066	10786.72	285.6
927.639	10780.05	290.6
928.212	10773.40	281
928.786	10766.75	295.7
929.359	10760.11	286.1
929.932	10753.48	273.8
930.505	10746.86	292.2
931.078	10740.24	269.4
931.651	10733.63	271.5
932.224	10727.04	286.7
932.797	10720.45	271.8
933.370	10713.86	262.8
933.943	10707.29	288.6
934.516	10700.72	285.7
935.089	10694.17	270.7
935.662	10687.62	271.3
936.236	10681.07	275.5
936.809	10674.54	288.5
937.382	10668.01	279.7
937.955	10661.50	276.7
938.528	10654.99	281.1
939.101	10648.48	300.6
939.674	10641.99	288.7
940.247	10635.50	290.2
940.820	10629.02	277.2
941.393	10622.55	286.8
941.966	10616.09	258.9
942.539	10609.64	282.7
943.112	10603.19	278.2
943.685	10596.75	283.7
944.259	10590.32	275.3
944.832	10583.90	310.1
945.405	10577.48	278.9
945.978	10571.07	281.9
946.551	10564.67	283.8
947.124	10558.28	277.9
947.697	10551.90	297.7
948.270	10545.52	272.5
948.843	10539.15	279
949.416	10532.79	275.7
949.989	10526.43	273
950.562	10520.09	276.2
951.135	10513.75	281.2
951.709	10507.42	270.8
952.282	10501.10	267.4
952.855	10494.78	265.3
953.428	10488.47	277.6
954.001	10482.17	272.8
954.574	10475.88	276
955.147	10469.59	281.9
955.720	10463.31	284.5
956.293	10457.04	288.9
956.866	10450.78	275
957.439	10444.53	267.7
958.012	10438.28	280.3
958.585	10432.04	296.3
959.159	10425.81	260.9
959.732	10419.58	266.1
960.305	10413.36	300.2
960.878	10407.15	292.2
961.451	10400.95	268.7
962.024	10394.75	262.3
962.597	10388.56	290
963.170	10382.38	280.6
963.743	10376.21	275.9
964.316	10370.04	282.6
964.889	10363.88	282.6
965.462	10357.73	292
966.035	10351.59	285.9
966.609	10345.45	280
967.182	10339.32	276.1
967.755	10333.20	275.1
968.328	10327.08	286.5
968.901	10320.97	293.5
969.474	10314.87	270.3
970.047	10308.78	272.4
970.620	10302.69	280.3
971.193	10296.61	267.3
971.766	10290.54	269.8
972.339	10284.48	273.9
972.912	10278.42	281.6
973.485	10272.37	256.3
974.059	10266.32	286.1
974.632	10260.29	266.3
975.205	10254.26	294.6
975.778	10248.24	286.6
976.351	10242.22	287.5
976.924	10236.21	272.6
977.497	10230.21	285.5
978.070	10224.22	297.4
978.643	10218.23	290.7
979.216	10212.25	282.8
979.789	10206.28	277.1
980.362	10200.31	283.2
980.935	10194.35	287.8
981.509	10188.40	293
982.082	10182.45	290.4
982.655	10176.52	291.5
983.228	10170.58	274.4
983.801	10164.66	286.6
984.374	10158.74	291.5
984.947	10152.83	284.1
985.520	10146.93	278.9
986.093	10141.03	284.9
986.666	10135.14	280.2
987.239	10129.26	300.9
987.812	10123.38	282
988.385	10117.51	304.6
988.958	10111.65	289.8
989.532	10105.79	304.2
990.105	10099.94	297.6
990.678	10094.10	307.8
991.251	10088.26	311.8
991.824	10082.44	306.4
992.397	10076.61	287.3
992.970	10070.80	268.5
993.543	10064.99	279.4
994.116	10059.19	308
994.689	10053.39	306
995.262	10047.60	302.7
995.835	10041.82	302.8
996.408	10036.04	308.1
996.982	10030.28	297
997.555	10024.51	304.8
998.128	10018.76	317.8
998.701	10013.01	286.3
999.274	10007.27	308.3
999.847	10001.53	313.9
1000.420	9995.80	290.4
1000.993	9990.08	304.2
1001.566	9984.36	300.1
1002.139	9978.65	314.2
1002.712	9972.95	314
1003.285	9967.25	321.3
1003.858	9961.56	316.2
1004.432	9955.88	308.4
1005.005	9950.20	303.8
1005.578	9944.53	296.3
1006.151	9938.87	304
1006.724	9933.21	295.2
1007.297	9927.56	299.4
1007.870	9921.91	293.1
1008.443	9916.28	293.4
1009.016	9910.64	294.1
1009.589	9905.02	289.4
1010.162	9899.40	303.5
1010.735	9893.79	296
1011.308	9888.18	307.2
1011.882	9882.58	271.1
1012.455	9876.99	304.7
1013.028	9871.40	309.8
1013.601	9865.82	287.5
1014.174	9860.24	285.6
1014.747	9854.67	289.7
1015.320	9849.11	309.1
1015.893	9843.56	295.7
1016.466	9838.01	293.1
1017.039	9832.46	308.7
1017.612	9826.93	317.1
1018.185	9821.39	287.6
1018.758	9815.87	286.5
1019.332	9810.35	301.8
1019.905	9804.84	297.6
1020.478	9799.33	293.7
1021.051	9793.83	310.4
1021.624	9788.34	312.4
1022.197	9782.85	291.6
1022.770	9777.37	288.5
1023.343	9771.89	290.5
1023.916	9766.42	292.4
1024.489	9760.96	310
1025.062	9755.50	288.6
1025.635	9750.05	280.4
1026.208	9744.61	287.6
1026.782	9739.17	294.4
1027.355	9733.74	297.4
1027.928	9728.31	305.6
1028.501	9722.89	299.7
1029.074	9717.48	289.6
1029.647	9712.07	293.1
1030.220	9706.66	294.2
1030.793	9701.27	305.4
1031.366	9695.88	300.3
1031.939	9690.49	289.1
1032.512	9685.11	321.4
1033.085	9679.74	290.2
1033.658	9674.38	299.2
1034.232	9669.02	295.7
1034.805	9663.66	289.9
1035.378	9658.31	288.5
1035.951	9652.97	293.5
1036.524	9647.63	290.7
1037.097	9642.30	293.7
1037.670	9636.98	279.9
1038.243	9631.66	291
1038.816	9626.34	295.6
1039.389	9621.04	290
1039.962	9615.73	275.6
1040.535	9610.44	270.2
1041.108	9605.15	294
1041.681	9599.86	278.8
1042.255	9594.58	291.1
1042.828	9589.31	279.6
1043.401	9584.05	294.3
1043.974	9578.78	285.2
1044.547	9573.53	271.6
1045.120	9568.28	283.2
1045.693	9563.04	284
1046.266	9557.80	283.9
1046.839	9552.57	272.8
1047.412	9547.34	272.1
1047.985	9542.12	279
1048.558	9536.90	284.2
1049.131	9531.69	286.2
1049.705	9526.49	291.9
1050.278	9521.29	296.4
1050.851	9516.10	285.5
1051.424	9510.91	291.2
1051.997	9505.73	296.8
1052.570	9500.56	274.5
1053.143	9495.39	276
1053.716	9490.22	260.3
1054.289	9485.06	300.5
1054.862	9479.91	278.6
1055.435	9474.76	282.3
1056.008	9469.62	301.6
1056.581	9464.49	298.5
1057.155	9459.35	290.2
1057.728	9454.23	287.4
1058.301	9449.11	283.9
1058.874	9444.00	282.9
1059.447	9438.89	282.2
1060.020	9433.78	295.1
1060.593	9428.69	303.6
1061.166	9423.60	287.8
1061.739	9418.51	289.6
1062.312	9413.43	299.4
1062.885	9408.35	291.1
1063.458	9403.28	277.8
1064.031	9398.22	288.8
1064.605	9393.16	321.3
1065.178	9388.11	287.8
1065.751	9383.06	297.4
1066.324	9378.01	294.8
1066.897	9372.98	292.6
1067.470	9367.95	300.8
1068.043	9362.92	292.5
1068.616	9357.90	289.4
1069.189	9352.88	292.5
1069.762	9347.87	290.4
1070.335	9342.87	285.2
1070.908	9337.87	284.8
1071.481	9332.87	286.3
1072.055	9327.88	281.8
1072.628	9322.90	284.3
1073.201	9317.92	296.3
1073.774	9312.95	318.9
1074.347	9307.98	304.7
1074.920	9303.02	307
1075.493	9298.06	300.3
1076.066	9293.11	301.2
1076.639	9288.16	305.7
1077.212	9283.22	296.7
1077.785	9278.29	294.8
1078.358	9273.36	305.8
1078.931	9268.43	297
1079.505	9263.51	296.9
1080.078	9258.59	296.2
1080.651	9253.68	295.7
1081.224	9248.78	325.9
1081.797	9243.88	296.7
1082.370	9238.99	285.9
1082.943	9234.10	295.7
1083.516	9229.21	306.4
1084.089	9224.33	297.2
1084.662	9219.46	294.8
1085.235	9214.59	293.3
1085.808	9209.73	301.1
1086.381	9204.87	303.1
1086.955	9200.02	314
1087.528	9195.17	303.5
1088.101	9190.33	307.4
1088.674	9185.49	302.7
1089.247	9180.66	297.2
1089.820	9175.83	278.3
1090.393	9171.01	306.3
1090.966	9166.19	313.8
1091.539	9161.38	287.5
1092.112	9156.57	288.9
1092.685	9151.77	303.7
1093.258	9146.97	282
1093.831	9142.18	286.2
1094.404	9137.39	290.6
1094.978	9132.61	290.1
1095.551	9127.83	293
1096.124	9123.06	291.2
1096.697	9118.29	293.3
1097.270	9113.53	304.2
1097.843	9108.77	298.3
1098.416	9104.02	281.3
1098.989	9099.27	283.1
1099.562	9094.53	295.3
