Wavelength [nm]	Wavenumbers [1/cm]	Epsilons ITI-E
200.003	49999.13	1.48E4
201.003	49750.38	1.486E4
202.003	49504.10	1.497E4
203.003	49260.24	1.51E4
204.003	49018.78	1.528E4
205.003	48779.67	1.545E4
206.003	48542.88	1.559E4
207.003	48308.38	1.576E4
208.003	48076.13	1.591E4
209.003	47846.11	1.609E4
210.003	47618.28	1.625E4
211.003	47392.60	1.651E4
212.003	47169.06	1.674E4
213.003	46947.61	1.697E4
214.003	46728.24	1.724E4
215.003	46510.90	1.744E4
216.003	46295.58	1.766E4
217.003	46082.24	1.792E4
218.003	45870.86	1.804E4
219.003	45661.41	1.802E4
220.003	45453.86	1.8E4
221.003	45248.19	1.783E4
222.003	45044.38	1.756E4
223.003	44842.39	1.728E4
224.003	44642.20	1.724E4
225.003	44443.80	1.738E4
226.003	44247.15	1.784E4
227.003	44052.23	1.861E4
228.003	43859.03	1.983E4
229.003	43667.51	2.095E4
230.003	43477.65	2.159E4
231.003	43289.44	2.305E4
232.003	43102.85	2.472E4
233.003	42917.87	2.575E4
234.003	42734.46	2.671E4
235.003	42552.62	2.735E4
236.003	42372.31	2.811E4
237.003	42193.53	2.84E4
238.003	42016.25	2.908E4
239.003	41840.45	2.891E4
240.003	41666.12	2.951E4
241.003	41493.24	2.928E4
242.003	41321.78	2.923E4
243.003	41151.74	2.932E4
244.003	40983.09	2.908E4
245.003	40815.81	2.923E4
246.003	40649.90	2.961E4
247.003	40485.33	2.962E4
248.003	40322.08	2.972E4
249.003	40160.15	2.96E4
250.003	39999.51	3.012E4
251.003	39840.16	2.956E4
252.003	39682.06	3.029E4
253.003	39525.22	3.007E4
254.003	39369.61	3.021E4
255.003	39215.22	3.005E4
256.003	39062.04	3.068E4
257.003	38910.05	2.99E4
258.003	38759.24	3.037E4
259.003	38609.60	3.008E4
260.003	38461.10	3.033E4
261.003	38313.74	3.059E4
262.003	38167.51	3.094E4
263.003	38022.39	2.976E4
264.003	37878.37	2.977E4
265.003	37735.43	3.026E4
266.003	37593.57	2.982E4
267.003	37452.78	2.958E4
268.003	37313.03	2.758E4
269.003	37174.32	2.545E4
270.003	37036.64	2.188E4
271.003	36899.98	1.777E4
272.003	36764.32	1.518E4
273.003	36629.66	1.256E4
274.003	36495.97	1.068E4
275.003	36363.26	9048
276.003	36231.51	7953
277.003	36100.72	7196
278.003	35970.86	6615
279.003	35841.94	6097
280.003	35713.93	5733
281.003	35586.84	5412
282.003	35460.65	5116
283.003	35335.35	4849
284.003	35210.93	4669
285.003	35087.38	4448
286.003	34964.70	4286
287.003	34842.88	4108
288.003	34721.90	3949
289.003	34601.75	3774
290.003	34482.44	3611
291.003	34363.94	3460
292.003	34246.26	3310
293.003	34129.38	3156
294.003	34013.30	2967
295.003	33898.00	2823
296.003	33783.48	2685
297.003	33669.74	2533
298.003	33556.75	2392
299.003	33444.52	2287
300.003	33333.04	2170
301.003	33222.31	2077
302.003	33112.30	1981
303.003	33003.02	1881
304.003	32894.46	1792
305.003	32786.61	1716
306.003	32679.47	1635
307.003	32573.02	1580
308.003	32467.27	1514
309.003	32362.20	1452
310.003	32257.80	1402
311.003	32154.08	1352
312.002	32051.03	1316
313.002	31948.63	1279
314.002	31846.88	1252
315.002	31745.78	1223
316.002	31645.32	1201
317.002	31545.50	1181
318.002	31446.30	1174
319.002	31347.72	1167
320.002	31249.76	1148
321.002	31152.41	1151
322.002	31055.67	1158
323.002	30959.52	1174
324.002	30863.97	1196
325.002	30769.01	1217
326.002	30674.62	1260
327.002	30580.82	1305
328.002	30487.59	1354
329.002	30394.92	1414
330.002	30302.82	1471
331.002	30211.27	1531
332.002	30120.27	1600
333.002	30029.82	1662
334.002	29939.91	1730
335.002	29850.54	1793
336.002	29761.70	1858
337.002	29673.39	1919
338.002	29585.60	1996
339.002	29498.33	2082
340.002	29411.57	2173
341.002	29325.32	2257
342.002	29239.58	2368
343.002	29154.33	2501
344.002	29069.58	2646
345.002	28985.32	2779
346.002	28901.55	2911
347.002	28818.26	3049
348.002	28735.45	3201
349.002	28653.12	3355
350.002	28571.25	3492
351.002	28489.85	3607
352.002	28408.92	3727
353.002	28328.44	3856
354.002	28248.42	3980
355.002	28168.85	4124
356.002	28089.72	4223
357.002	28011.04	4364
358.002	27932.80	4500
359.002	27854.99	4652
360.002	27777.62	4834
361.002	27700.67	5020
362.002	27624.15	5176
363.002	27548.05	5373
364.002	27472.37	5601
365.002	27397.11	5788
366.002	27322.25	5931
367.002	27247.81	6109
368.002	27173.77	6253
369.002	27100.12	6414
370.002	27026.88	6543
371.002	26954.03	6650
372.002	26881.58	6745
373.002	26809.51	6847
374.002	26737.83	6929
375.002	26666.53	7003
376.002	26595.61	7073
377.002	26525.06	7160
378.002	26454.89	7255
379.002	26385.09	7375
380.002	26315.66	7535
381.002	26246.59	7656
382.002	26177.88	7830
383.002	26109.53	7981
384.002	26041.54	8104
385.002	25973.90	8237
386.002	25906.61	8319
387.002	25839.67	8403
388.002	25773.07	8463
389.002	25706.82	8511
390.002	25640.91	8563
391.002	25575.33	8596
392.002	25510.09	8595
393.002	25445.18	8601
394.002	25380.60	8617
395.002	25316.34	8606
396.002	25252.41	8596
397.002	25188.81	8565
398.002	25125.52	8537
399.002	25062.55	8488
400.002	24999.89	8445
401.002	24937.55	8397
402.002	24875.52	8302
403.002	24813.79	8228
404.002	24752.37	8150
405.002	24691.26	8060
406.002	24630.44	7954
407.002	24569.92	7858
408.002	24509.71	7738
409.002	24449.78	7624
410.002	24390.15	7486
411.002	24330.80	7342
412.002	24271.75	7200
413.002	24212.98	7026
414.002	24154.50	6867
415.002	24096.29	6699
416.002	24038.37	6508
417.002	23980.73	6315
418.002	23923.36	6106
419.002	23866.26	5928
420.002	23809.44	5739
421.002	23752.88	5522
422.002	23696.60	5314
423.002	23640.58	5076
424.002	23584.82	4879
425.001	23529.33	4682
426.001	23474.10	4465
427.001	23419.12	4242
428.001	23364.41	4034
429.001	23309.94	3844
430.001	23255.74	3681
431.001	23201.78	3466
432.001	23148.07	3264
433.001	23094.61	3075
434.001	23041.40	2909
435.001	22988.43	2753
436.001	22935.71	2581
437.001	22883.22	2407
438.001	22830.98	2232
439.001	22778.97	2087
440.001	22727.20	1961
441.001	22675.67	1813
442.001	22624.37	1665
443.001	22573.30	1523
444.001	22522.46	1401
445.001	22471.84	1295
446.001	22421.46	1178
447.001	22371.30	1078
448.001	22321.36	962.7
449.001	22271.65	862.1
450.001	22222.16	786.8
451.001	22172.89	703.4
452.001	22123.83	633.8
453.001	22074.99	555
454.001	22026.37	491
455.001	21977.96	445.4
456.001	21929.77	400.1
457.001	21881.78	345.5
458.001	21834.00	306.7
459.001	21786.44	270.8
460.001	21739.07	235.7
461.001	21691.92	209
462.001	21644.97	189.4
463.001	21598.22	173.7
464.001	21551.67	162.6
465.001	21505.32	141.4
466.001	21459.18	136.2
467.001	21413.22	122.9
468.001	21367.47	119.6
469.001	21321.91	108.7
470.001	21276.55	108
471.001	21231.37	101.4
472.001	21186.39	92.49
473.001	21141.60	95.78
474.001	21097.00	89.59
475.001	21052.58	83.65
476.001	21008.36	84.05
477.001	20964.32	83.69
478.001	20920.46	80.11
479.001	20876.78	73.61
480.001	20833.29	80.95
481.001	20789.98	76.17
482.001	20746.85	77.26
483.001	20703.89	82.5
484.001	20661.12	73.88
485.001	20618.52	72.8
486.001	20576.09	76.97
487.001	20533.84	77.26
488.001	20491.76	75.27
489.001	20449.86	76.7
490.001	20408.13	70.32
491.001	20366.56	77.7
492.001	20325.17	71.38
493.001	20283.94	73.34
494.001	20242.88	71.4
495.001	20201.98	80.84
496.001	20161.26	77.65
497.001	20120.69	77.17
498.001	20080.29	69.31
499.001	20040.05	72.95
500.001	19999.97	70.71
501.001	19960.05	73.35
502.001	19920.29	73.72
503.001	19880.68	67.88
504.001	19841.24	71.36
505.001	19801.95	78.37
506.001	19762.82	69.31
507.001	19723.84	70.17
508.001	19685.01	64.49
509.001	19646.34	72.38
510.001	19607.81	70.55
511.001	19569.44	65.12
512.001	19531.22	66.97
513.001	19493.15	63.49
514.001	19455.23	73.45
515.001	19417.45	65.62
516.001	19379.82	75.04
517.001	19342.33	63.22
518.001	19304.99	69.71
519.001	19267.80	64.82
520.001	19230.75	62.94
521.001	19193.83	68.8
522.001	19157.06	67.29
523.001	19120.44	70.32
524.001	19083.95	65.87
525.001	19047.60	60.22
526.001	19011.39	61.79
527.001	18975.31	62.49
528.001	18939.37	62.89
529.001	18903.57	64.98
530.001	18867.90	64.68
531.001	18832.37	60.44
532.001	18796.97	63.18
533.001	18761.71	60.48
534.001	18726.57	65.48
535.001	18691.57	56.39
536.001	18656.70	61.2
537.001	18621.96	65.32
538.000	18587.34	61.87
539.000	18552.86	57.84
540.000	18518.50	60.15
541.000	18484.27	66.73
542.000	18450.17	63.1
543.000	18416.19	63.78
544.000	18382.34	60.35
545.000	18348.61	62.97
546.000	18315.00	58.84
547.000	18281.52	61.79
548.000	18248.16	61.89
549.000	18214.92	55.22
550.000	18181.81	57.73
551.000	18148.81	64.13
552.000	18115.93	52.15
553.000	18083.17	55.31
554.000	18050.53	61.42
555.000	18018.01	58.46
556.000	17985.60	55.6
557.000	17953.31	58.26
558.000	17921.14	60.91
559.000	17889.08	54.7
560.000	17857.13	61.9
561.000	17825.30	50.53
562.000	17793.59	59.09
563.000	17761.98	59.29
564.000	17730.49	53.15
565.000	17699.11	66.5
566.000	17667.84	55.93
567.000	17636.68	56.39
568.000	17605.63	58.07
569.000	17574.69	56.4
570.000	17543.85	56.2
571.000	17513.13	62.89
572.000	17482.51	51.04
573.000	17452.00	59.96
574.000	17421.60	54.62
575.000	17391.30	54.9
576.000	17361.11	56.13
577.000	17331.02	52.34
578.000	17301.03	55.8
579.000	17271.15	57.39
580.000	17241.38	58.28
581.000	17211.70	52.41
582.000	17182.13	47.19
583.000	17152.66	53.1
584.000	17123.29	52.01
585.000	17094.01	52.9
586.000	17064.84	52.81
587.000	17035.77	49.66
588.000	17006.80	50.39
589.000	16977.93	54.96
590.000	16949.15	51.61
591.000	16920.47	52.2
592.000	16891.89	51.61
593.000	16863.41	48.82
594.000	16835.02	55.55
595.000	16806.72	52.73
596.000	16778.52	54.28
597.000	16750.42	47.13
598.000	16722.41	46.82
599.000	16694.49	49.94
600.000	16666.67	57.28
601.000	16638.94	49.87
602.000	16611.30	46.83
603.000	16583.75	48.11
604.000	16556.29	47.8
605.000	16528.93	46.25
606.000	16501.65	49.07
607.000	16474.47	55.08
608.000	16447.37	43.23
609.000	16420.36	52.84
610.000	16393.45	46.83
611.000	16366.62	48.26
612.000	16339.87	51.4
613.000	16313.22	51.19
614.000	16286.65	50.15
615.000	16260.17	46.87
616.000	16233.77	56.26
617.000	16207.46	49.39
618.000	16181.24	53.17
619.000	16155.09	49.93
620.000	16129.04	49.51
621.000	16103.07	51.21
622.000	16077.18	52.7
623.000	16051.37	51.4
624.000	16025.65	50.82
625.000	16000.01	51.4
626.000	15974.45	53.08
627.000	15948.97	51.71
628.000	15923.57	49.51
629.000	15898.26	47.09
630.000	15873.02	43.49
631.000	15847.87	48.92
632.000	15822.79	41.41
633.000	15797.80	46.6
634.000	15772.88	49.11
635.000	15748.04	48.27
636.000	15723.28	44.58
637.000	15698.60	45.71
638.000	15673.99	46.32
639.000	15649.46	43.67
640.000	15625.01	49.71
641.000	15600.63	43.98
642.000	15576.33	48.81
643.000	15552.11	55.01
644.000	15527.96	46.06
645.000	15503.89	39.86
646.000	15479.89	48.5
647.000	15455.96	46.89
648.000	15432.11	38.9
649.000	15408.33	49.12
650.000	15384.63	53.52
650.999	15361.00	54.69
651.999	15337.44	52.68
652.999	15313.95	45.66
653.999	15290.53	42.05
654.999	15267.19	39.06
655.999	15243.92	44.62
656.999	15220.71	49.2
657.999	15197.58	55.47
658.999	15174.52	44.34
659.999	15151.53	44.23
660.999	15128.61	46.58
661.999	15105.75	42.23
662.999	15082.97	40.46
663.999	15060.26	49.85
664.999	15037.61	46.63
665.999	15015.03	47.9
666.999	14992.52	44.15
667.999	14970.07	47.48
668.999	14947.70	52.34
669.999	14925.39	41.36
670.999	14903.14	50.2
671.999	14880.97	48.43
672.999	14858.86	42.55
673.999	14836.81	45.98
674.999	14814.83	50.51
675.999	14792.92	38.92
676.999	14771.06	54.27
677.999	14749.28	43.66
678.999	14727.56	48.32
679.999	14705.90	43.12
680.999	14684.30	41.55
681.999	14662.77	40.78
682.999	14641.31	34.58
683.999	14619.90	45.1
684.999	14598.56	50.4
685.999	14577.28	44.78
686.999	14556.06	42.66
687.999	14534.90	36.84
688.999	14513.81	44.12
689.999	14492.77	28.41
690.999	14471.80	34.53
691.999	14450.89	41.24
692.999	14430.03	44.98
693.999	14409.24	50.21
694.999	14388.51	44.87
695.999	14367.83	44.57
696.999	14347.22	41.52
697.999	14326.67	40.93
698.999	14306.17	46.25
699.999	14285.73	34.12
700.999	14265.35	39.43
701.999	14245.03	39.73
702.999	14224.77	42.3
703.999	14204.57	38.4
704.999	14184.42	35.82
705.999	14164.33	44.09
706.999	14144.29	34.67
707.999	14124.31	43.64
708.999	14104.39	46.87
709.999	14084.53	46.93
710.999	14064.72	47.73
711.999	14044.96	38.72
712.999	14025.27	37.13
713.999	14005.62	42.1
714.999	13986.04	40.74
715.999	13966.50	42.5
716.999	13947.02	41.54
717.999	13927.60	41.72
718.999	13908.23	39.49
719.999	13888.91	43.28
720.999	13869.65	40.02
721.999	13850.44	39.54
722.999	13831.28	40.38
723.999	13812.18	46.94
724.999	13793.13	37.48
725.999	13774.13	44.75
726.999	13755.18	33.71
727.999	13736.29	44.32
728.999	13717.44	44.3
729.999	13698.65	41.72
730.999	13679.91	41.38
731.999	13661.23	37.05
732.999	13642.59	38.61
733.999	13624.00	43.92
734.999	13605.47	42.25
735.999	13586.98	44.1
736.999	13568.54	42.34
737.999	13550.16	28.71
738.999	13531.82	46.21
739.999	13513.54	39.45
740.999	13495.30	44.74
741.999	13477.11	36.47
742.999	13458.97	46.17
743.999	13440.88	44.24
744.999	13422.84	30.39
745.999	13404.85	39.84
746.999	13386.91	43.22
747.999	13369.01	34.1
748.999	13351.16	41.55
749.999	13333.36	28.66
750.999	13315.60	40.74
751.999	13297.90	41.74
752.999	13280.24	24.43
753.999	13262.62	30.64
754.999	13245.06	29.49
755.999	13227.54	43.8
756.999	13210.06	38.16
757.999	13192.64	38.12
758.999	13175.26	36.27
759.999	13157.92	46.56
760.999	13140.63	38.72
761.999	13123.39	36.96
762.998	13106.19	35.14
763.998	13089.03	26.81
764.998	13071.92	43.33
765.998	13054.86	34.94
766.998	13037.84	36.31
767.998	13020.86	34.25
768.998	13003.93	29.5
769.998	12987.04	24.8
770.998	12970.20	25.1
771.998	12953.39	45.28
772.998	12936.64	33.82
773.998	12919.92	29.31
774.998	12903.25	34.63
775.998	12886.62	33.26
776.998	12870.04	24.79
777.998	12853.50	33.33
778.998	12837.00	28.46
779.998	12820.54	29.93
780.998	12804.12	41.3
781.998	12787.75	38.74
782.998	12771.42	32.61
783.998	12755.13	37.12
784.998	12738.88	24.03
785.998	12722.67	41.28
786.998	12706.51	35.56
787.998	12690.38	29.16
788.998	12674.30	38.72
789.998	12658.26	36.65
790.998	12642.25	40.75
791.998	12626.29	30.81
792.998	12610.37	24.19
793.998	12594.49	39.49
794.998	12578.64	41.94
795.998	12562.84	43.92
796.998	12547.08	37.69
797.998	12531.36	35.38
798.998	12515.67	22.01
